# Temperature (K)   Density (sol/liq; kg/m3)   Density (vap; kg/m3)   Pressure (Pa)  Entropy (sol/liq; J/kg)   Entropy (vap; J/kg)
  8.8763E+03  9.6564E+02  9.6564E+02  6.5899E+08  3.7863E+03  3.7863E+03
  8.7585E+03  1.2834E+03  7.0546E+02  6.2574E+08  3.6910E+03  3.8687E+03
  8.6407E+03  1.4349E+03  6.1221E+02  5.9342E+08  3.6467E+03  3.8999E+03
  8.5229E+03  1.5602E+03  5.4588E+02  5.6203E+08  3.6103E+03  3.9230E+03
  8.4052E+03  1.6725E+03  4.9332E+02  5.3157E+08  3.5778E+03  3.9419E+03
  8.2874E+03  1.7771E+03  4.4944E+02  5.0202E+08  3.5477E+03  3.9583E+03
  8.1696E+03  1.8764E+03  4.1167E+02  4.7338E+08  3.5191E+03  3.9729E+03
  8.0518E+03  1.9720E+03  3.7848E+02  4.4564E+08  3.4917E+03  3.9862E+03
  7.9340E+03  2.0650E+03  3.4888E+02  4.1881E+08  3.4649E+03  3.9985E+03
  7.8162E+03  2.1561E+03  3.2218E+02  3.9288E+08  3.4388E+03  4.0101E+03
  7.6984E+03  2.2459E+03  2.9789E+02  3.6783E+08  3.4130E+03  4.0210E+03
  7.5806E+03  2.3348E+03  2.7565E+02  3.4368E+08  3.3874E+03  4.0315E+03
  7.4628E+03  2.4230E+03  2.5515E+02  3.2041E+08  3.3620E+03  4.0416E+03
  7.3451E+03  2.5110E+03  2.3619E+02  2.9802E+08  3.3366E+03  4.0514E+03
  7.2273E+03  2.5988E+03  2.1857E+02  2.7651E+08  3.3113E+03  4.0610E+03
  7.1095E+03  2.6868E+03  2.0214E+02  2.5588E+08  3.2858E+03  4.0705E+03
  6.9917E+03  2.7750E+03  1.8679E+02  2.3611E+08  3.2603E+03  4.0799E+03
  6.8739E+03  2.8637E+03  1.7241E+02  2.1721E+08  3.2345E+03  4.0892E+03
  6.7561E+03  2.9529E+03  1.5892E+02  1.9917E+08  3.2086E+03  4.0986E+03
  6.6383E+03  3.0427E+03  1.4623E+02  1.8200E+08  3.1824E+03  4.1080E+03
  6.5205E+03  3.1334E+03  1.3429E+02  1.6568E+08  3.1560E+03  4.1176E+03
  6.4027E+03  3.2249E+03  1.2305E+02  1.5021E+08  3.1292E+03  4.1273E+03
  6.2850E+03  3.3173E+03  1.1245E+02  1.3560E+08  3.1021E+03  4.1373E+03
  6.1672E+03  3.4107E+03  1.0246E+02  1.2183E+08  3.0746E+03  4.1476E+03
  6.0494E+03  3.5052E+03  9.3046E+01  1.0889E+08  3.0468E+03  4.1583E+03
  5.9316E+03  3.6007E+03  8.4174E+01  9.6796E+07  3.0186E+03  4.1694E+03
  5.8138E+03  3.6974E+03  7.5822E+01  8.5526E+07  2.9900E+03  4.1811E+03
  5.6960E+03  3.7951E+03  6.7969E+01  7.5073E+07  2.9609E+03  4.1934E+03
  5.5782E+03  3.8939E+03  6.0599E+01  6.5430E+07  2.9315E+03  4.2064E+03
  5.4604E+03  3.9937E+03  5.3699E+01  5.6583E+07  2.9017E+03  4.2202E+03
  5.3427E+03  4.0946E+03  4.7260E+01  4.8518E+07  2.8714E+03  4.2350E+03
  5.2249E+03  4.1963E+03  4.1274E+01  4.1218E+07  2.8408E+03  4.2509E+03
  5.1071E+03  4.2990E+03  3.5737E+01  3.4664E+07  2.8097E+03  4.2680E+03
  4.9893E+03  4.4024E+03  3.0646E+01  2.8830E+07  2.7783E+03  4.2866E+03
  4.8715E+03  4.5065E+03  2.5999E+01  2.3689E+07  2.7465E+03  4.3068E+03
  4.7537E+03  4.6110E+03  2.1793E+01  1.9207E+07  2.7144E+03  4.3287E+03
  4.6359E+03  4.7160E+03  1.8026E+01  1.5349E+07  2.6819E+03  4.3527E+03
  4.5181E+03  4.8212E+03  1.4691E+01  1.2071E+07  2.6492E+03  4.3790E+03
  4.4003E+03  4.9264E+03  1.1779E+01  9.3281E+06  2.6161E+03  4.4078E+03
  4.2826E+03  5.0316E+03  9.2748E+00  7.0707E+06  2.5828E+03  4.4394E+03
  4.1648E+03  5.1364E+03  7.1581E+00  5.2467E+06  2.5493E+03  4.4741E+03
  4.0470E+03  5.2409E+03  5.4031E+00  3.8027E+06  2.5155E+03  4.5123E+03
  3.9292E+03  5.3447E+03  3.9787E+00  2.6849E+06  2.4815E+03  4.5544E+03
  3.8114E+03  5.4478E+03  2.8501E+00  1.8414E+06  2.4473E+03  4.6009E+03
  3.6936E+03  5.5499E+03  1.9794E+00  1.2224E+06  2.4129E+03  4.6523E+03
  3.5758E+03  5.6510E+03  1.3276E+00  7.8236E+05  2.3783E+03  4.7093E+03
  3.4580E+03  5.7510E+03  8.5600E-01  4.8053E+05  2.3435E+03  4.7726E+03
  3.3402E+03  5.8496E+03  5.2775E-01  2.8172E+05  2.3084E+03  4.8431E+03
  3.2225E+03  5.9468E+03  3.0916E-01  1.5665E+05  2.2731E+03  4.9218E+03
  3.1047E+03  6.0426E+03  1.7081E-01  8.2004E+04  2.2375E+03  5.0098E+03
  2.9869E+03  6.1368E+03  8.8225E-02  4.0067E+04  2.2016E+03  5.1086E+03
  2.9280E+03  6.1833E+03  6.1630E-02  2.7207E+04  2.1835E+03  5.1626E+03
  2.8691E+03  6.2293E+03  4.2165E-02  1.8087E+04  2.1652E+03  5.2198E+03
  2.8102E+03  6.2750E+03  2.8208E-02  1.1754E+04  2.1469E+03  5.2806E+03
  2.7513E+03  6.3202E+03  1.8422E-02  7.4551E+03  2.1285E+03  5.3452E+03
  2.6924E+03  6.3650E+03  1.1723E-02  4.6062E+03  2.1099E+03  5.4139E+03
  2.6335E+03  6.4094E+03  7.2546E-03  2.7672E+03  2.0912E+03  5.4870E+03
  2.5746E+03  6.4533E+03  4.3567E-03  1.6130E+03  2.0723E+03  5.5647E+03
  2.5157E+03  6.4968E+03  2.5333E-03  9.1033E+02  2.0533E+03  5.6475E+03
  2.4568E+03  6.5399E+03  1.4228E-03  4.9620E+02  2.0341E+03  5.7356E+03
  2.3979E+03  6.5825E+03  7.6979E-04  2.6057E+02  2.0147E+03  5.8294E+03
  2.3390E+03  6.6247E+03  4.0011E-04  1.3145E+02  1.9951E+03  5.9294E+03
  2.2802E+03  6.6664E+03  1.9918E-04  6.3524E+01  1.9753E+03  6.0358E+03
  2.2213E+03  6.7077E+03  9.4667E-05  2.9311E+01  1.9552E+03  6.1492E+03
  2.1624E+03  6.7485E+03  4.2807E-05  1.2869E+01  1.9349E+03  6.2699E+03
  2.1035E+03  6.7889E+03  1.8347E-05  5.3560E+00  1.9143E+03  6.3985E+03
  2.0446E+03  6.8289E+03  7.4238E-06  2.1046E+00  1.8935E+03  6.5355E+03
  1.9857E+03  6.8684E+03  2.8232E-06  7.7727E-01  1.8723E+03  6.6814E+03
  1.9268E+03  6.9075E+03  1.0042E-06  2.6848E-01  1.8507E+03  6.8368E+03
  1.8679E+03  6.9461E+03  3.3227E-07  8.6258E-02  1.8288E+03  7.0023E+03
  1.8090E+03  6.9843E+03  1.0167E-07  2.5620E-02  1.8065E+03  7.1788E+03
  1.7909E+03  7.2713E+03  6.8802E-08  1.7181E-02  1.6626E+03  7.2370E+03
  1.7306E+03  7.3081E+03  1.7592E-08  4.2597E-03  1.6379E+03  7.4393E+03
  1.6703E+03  7.3445E+03  4.0593E-09  9.5248E-04  1.6126E+03  7.6556E+03
  1.6100E+03  7.3805E+03  8.3673E-10  1.9009E-04  1.5866E+03  7.8872E+03
  1.5497E+03  7.4161E+03  1.5227E-10  3.3457E-05  1.5599E+03  8.1357E+03
  1.4894E+03  7.4512E+03  2.4130E-11  5.1210E-06  1.5324E+03  8.4027E+03
  1.4291E+03  7.4860E+03  3.2763E-12  6.7052E-07  1.5040E+03  8.6906E+03
  1.3688E+03  7.5203E+03  3.7388E-13  7.3655E-08  1.4747E+03  9.0020E+03
  1.3085E+03  7.5542E+03  3.5045E-14  6.6319E-09  1.4444E+03  9.3400E+03
  1.2482E+03  7.5877E+03  2.6249E-15  4.7601E-10  1.4130E+03  9.7086E+03
  1.1879E+03  7.6208E+03  1.5193E-16  2.6332E-11  1.3803E+03  1.0113E+04
  1.1276E+03  7.6536E+03  5.3602E-21  8.8928E-16  1.3462E+03  1.0215E+04
  1.0673E+03  7.6859E+03  1.8766E-22  2.9554E-17  1.3105E+03  1.0702E+04
  1.0070E+03  7.7178E+03  4.3939E-24  6.5446E-19  1.2732E+03  1.1248E+04
  9.4671E+02  7.7494E+03  6.3619E-26  8.9260E-21  1.2338E+03  1.1864E+04
  8.8641E+02  7.7805E+03  5.1549E-28  6.7823E-23  1.1923E+03  1.2567E+04
  8.2611E+02  7.8113E+03  2.0541E-30  2.5217E-25  1.1482E+03  1.3373E+04
  7.6581E+02  7.8416E+03  3.3960E-33  3.8677E-28  1.1012E+03  1.4310E+04
  7.0551E+02  7.8715E+03  1.8538E-36  1.9461E-31  1.0509E+03  1.5410E+04
  6.4521E+02  7.9010E+03  2.4420E-40  2.3451E-35  9.9661E+02  1.6721E+04
  5.8491E+02  7.9301E+03  5.6052E-45  4.3399E-40  9.3765E+02  1.8307E+04
  5.2461E+02  7.9586E+03  0.0000E+00  0.0000E+00  8.7308E+02  2.0264E+04
  4.6431E+02  7.9866E+03  0.0000E+00  0.0000E+00  8.0169E+02  2.2739E+04
  4.0401E+02  8.0140E+03  0.0000E+00  0.0000E+00  7.2183E+02  2.5963E+04
  3.4371E+02  8.0405E+03  0.0000E+00  0.0000E+00  6.3133E+02  3.0334E+04
  2.8341E+02  8.0660E+03  0.0000E+00  0.0000E+00  5.2723E+02  3.6585E+04
  2.2311E+02  8.0899E+03  0.0000E+00  0.0000E+00  4.0585E+02  3.6157E+04
